Re(Z)/Ohm	-Im(Z)/Ohm
5.069894409179688E+001	-1.369502663612366E+000
5.033991622924805E+001	-1.020236730575562E+000
5.007152938842773E+001	-6.951724886894226E-001
4.985071945190430E+001	-3.920972049236298E-001
4.990684509277344E+001	-1.958568990230560E-001
4.982101058959961E+001	1.485672779381275E-002
4.991916656494141E+001	1.076179221272469E-001
4.995968627929688E+001	1.787241250276566E-001
5.001274871826172E+001	2.523878514766693E-001
5.009983062744141E+001	3.210369646549225E-001
5.016474151611328E+001	3.962633311748505E-001
5.022684478759766E+001	4.949013888835907E-001
5.022693252563477E+001	5.288071036338806E-001
5.038720703125000E+001	5.821119546890259E-001
5.048554229736328E+001	7.077805399894714E-001
5.058917617797852E+001	8.435167074203491E-001
5.076852798461914E+001	8.735678195953369E-001
5.078125762939453E+001	1.059224486351013E+000
5.082580947875977E+001	1.157459139823914E+000
5.097881698608398E+001	1.242041826248169E+000
5.117379760742188E+001	1.464557051658630E+000
5.140831756591797E+001	1.708354949951172E+000
5.157001876831055E+001	1.946325540542603E+000
5.178299713134766E+001	2.228133201599121E+000
5.207339096069336E+001	2.620350122451782E+000
5.221018600463867E+001	3.142408847808838E+000
5.256731033325195E+001	3.566389560699463E+000
5.283824920654297E+001	4.246304512023926E+000
5.323000717163086E+001	4.898125171661377E+000
5.365499114990234E+001	5.895857810974121E+000
5.420292282104492E+001	7.011991977691650E+000
5.455421829223633E+001	8.453450202941895E+000
5.526346206665039E+001	1.012748336791992E+001
5.603304290771484E+001	1.225219917297363E+001
5.693823242187500E+001	1.485956668853760E+001
5.797611236572266E+001	1.810537719726563E+001
5.919450759887695E+001	2.215903091430664E+001
6.055809020996094E+001	2.714967155456543E+001
6.233708572387695E+001	3.330569458007813E+001
6.427356719970703E+001	4.107342529296875E+001
6.695018768310547E+001	5.055986785888672E+001
6.974971771240234E+001	6.233980941772461E+001
7.324439239501953E+001	7.731186676025391E+001
7.798407745361328E+001	9.534289550781250E+001
8.311066436767578E+001	1.193848953247070E+002
8.974390411376953E+001	1.472302398681641E+002
9.806623077392578E+001	1.839089813232422E+002
1.072985839843750E+002	2.285519104003906E+002
1.199539642333984E+002	2.838463439941406E+002
1.358028717041016E+002	3.541362304687500E+002
1.543627929687500E+002	4.403688049316406E+002
1.783129730224609E+002	5.469591674804688E+002
2.095000305175781E+002	6.817866210937500E+002
2.457408599853516E+002	8.496347656250000E+002
2.901193542480469E+002	1.055846557617188E+003
3.463198242187500E+002	1.315952270507813E+003
4.208576049804688E+002	1.638723022460938E+003
5.097028503417969E+002	2.042799072265625E+003
